mode_index,frequency_cm-1,direct_raman_activity,foundation_raman_activity,activity_ratio_foundation_over_direct,direct_frobenius_norm,foundation_frobenius_norm,frobenius_ratio_foundation_over_direct,direct_iso_derivative,foundation_iso_derivative,direct_anisotropy_sq,foundation_anisotropy_sq
0,-22.166627348347888,2.6167819155493933e-05,1.1151725594641137e-06,0.042616182603431946,0.001532499533007618,0.0003258924212125058,0.21265417325963112,-0.00033422032647297445,-8.994782333774746e-07,3.020167708178194e-06,1.593051645307085e-07
4,39.53688564266939,1.2260346612797505e-05,1.997006911680901e-06,0.16288339757021222,0.0009809039137396525,0.00042491629121510765,0.433188496103694,-0.0003997717393996088,-8.657749216138082e-05,7.240802356830017e-07,2.3710030213971036e-07
5,54.56753861757706,1.1825749205192807e-06,8.099697845061741e-07,0.6849204819517973,0.00031557876401559765,0.00027705101277733144,0.8779139928554827,0.00010069402843537745,1.7253053098039334e-05,1.0375814131496767e-07,1.1379639023600067e-07
6,59.45478828753054,1.118659690100795e-06,6.925131645431004e-07,0.6190561532441583,0.00032521748579593363,0.00022577619208474355,0.6942314049694512,2.4513568265271957e-05,0.00010793579400258935,1.5594550197020978e-07,2.4036723047068185e-08
7,62.95600198019449,2.5506955377078377e-07,1.3500068473364686e-07,0.5292700862877745,0.00015318730370057377,0.00011332085687272785,0.7397535835882945,2.5346310437527702e-05,-3.482340728000466e-06,3.230856548499787e-08,1.9207854767297397e-08
8,69.32213432581727,1.0212297816947329e-05,1.1666368050847647e-05,1.1423842371192197,0.0008657957473005087,0.001021108827258547,1.1793876678677317,-0.0004164642991670113,-0.000230684016887898,3.4391210790245514e-07,1.3245268352440751e-06
9,70.39059344010377,1.7350600591644019e-06,1.8136143354819504e-06,1.045274672713854,0.00040447783129031933,0.00041419160258479885,1.0240155839035523,3.573124072286937e-05,3.0172537351935702e-05,2.396582269717997e-07,2.532353064315032e-07
10,71.64555917461473,2.0997592747165366e-06,1.2073501716906587e-06,0.5749945654382922,0.00040817377551025786,0.00029473262612092705,0.7220763405304075,0.00016110683114615534,0.00014788466533059244,1.3310939683264642e-07,3.188654727047126e-08
11,81.52815325152325,6.78087068536863e-05,7.913386129710393e-06,0.1167016227987571,0.0025323197533797864,0.000857965969268705,0.3388063328588785,-0.00018776499366731278,0.00011683393826659542,9.460314382225205e-06,1.0427326455458108e-06
12,85.73753756691633,3.925013922053315e-06,1.373442133423501e-06,0.3499203214813068,0.0005870481003398538,0.0003421761107250993,0.5828757652516153,-0.00015066432271300853,-0.00010329927056444237,4.147893865453834e-07,1.276084092802767e-07
13,87.35717620013874,6.65815424065795e-06,1.1436635200870148e-06,0.17176885346140608,0.000768679571979812,0.00031747099800116406,0.4130082411107731,-0.0001833913553998349,-7.95316182559495e-05,7.349566750093522e-07,1.227179994969373e-07
14,90.10141492189523,6.1016302543642984e-05,5.510938374894384e-06,0.09031911382949809,0.0022424368390768002,0.0006611047420817614,0.294815323473697,-0.0007801619624122255,-0.0002613092158461801,4.803847371696103e-06,3.483179417168335e-07
15,99.93348099667855,5.552634223490431e-06,4.5636752350790517e-07,0.08218937267238698,0.0006443476330686867,0.0002010655096749164,0.31204508149948157,0.0002972969042155012,-4.8595428918662975e-05,2.250412867092844e-07,5.001418806820114e-08
16,100.12820816645754,1.025523810361408e-05,3.5708963691306653e-06,0.34820219024190524,0.0009874945626632027,0.0005393729306725284,0.5462034436097328,-3.465195743013183e-05,-0.000195543536222198,1.4573148552422565e-06,2.643170020011389e-07
17,101.6227929569078,3.6584377553752674e-05,1.1116372512806436e-05,0.3038557235659778,0.0018540378248401205,0.0009384785013778963,0.5061808819670787,-0.00019072704296685394,-0.00037203968212754884,4.992488761771867e-06,6.982519834736993e-07
18,109.46878641560434,0.00023298880293629541,4.350551689702285e-05,0.18672793004957527,0.004701219874052505,0.0020345172444583997,0.43276368665237996,-0.00026153191751106714,-5.662253708978623e-05,3.2844407208832815e-05,6.194463124318723e-06
19,114.22376966431463,3.181344862507027e-05,1.7467450673395413e-05,0.5490586977618755,0.0017386427993851007,0.0012895870171762934,0.7417205061513364,-7.364650031001692e-05,-2.034259764194246e-05,4.509911044244881e-06,2.492689816549775e-06
20,117.93417321613713,3.701748645285015e-05,1.2875461470727594e-05,0.3478210625437063,0.0018764742352759686,0.001106100642202192,0.5894568768430335,-5.796110987203266e-05,-4.6464521380832714e-05,5.266615627322607e-06,1.8254726631579786e-06
21,118.37164429418617,6.100182707131684e-06,2.4783310486504646e-06,0.4062716098245818,0.0007047091989089972,0.0004609238450750977,0.6540624782373803,-0.00025614299093201787,-0.0001354273738899773,4.4968103942424185e-07,2.3614360524390827e-07
22,123.98347018573564,0.0003486030295998526,0.00011406750058576891,0.32721316483308366,0.005491329438764864,0.003204385702967187,0.5835355060555123,-0.0015390879946656593,-0.0006805542069069729,3.4572485158610626e-05,1.3317938471646267e-05
23,139.8513910812932,8.16443841508122e-06,2.8235315944938865e-06,0.34583292211235306,0.000773788972862291,0.0004529188357587062,0.585326040617163,-0.0003729333157139377,-0.0002227120946259505,2.722674009226573e-07,8.450016076048023e-08
24,140.24340823489734,5.114633409299077e-06,2.4774517565647396e-06,0.484385010284492,0.0006708229800749258,0.0004788264745032345,0.7137896117538389,-0.00016987947100588485,-7.20423915175535e-05,5.451395498833299e-07,3.2055671123773694e-07
25,140.4261071754467,1.6504903578118425e-05,3.1507697600413907e-06,0.19089901041400578,0.0010674454363139173,0.00048294902450000737,0.4524343896843271,-0.000579960797097249,-0.00022799484679906593,1.955642714975695e-07,1.1594221464708018e-07
26,143.42333473265123,4.0121793564200854e-05,7.522692617556971e-06,0.18749641901027034,0.0019125448961529738,0.0008411355884575713,0.4397991336828171,0.0003563809630668935,8.337656512980018e-05,4.915208710936995e-06,1.029981184997e-06
27,162.99178764010705,0.0018248502537202402,0.0003161699529868318,0.17325802615434902,0.011037334124902091,0.004601305599835626,0.416885594634152,-0.00635791391120281,-0.0026368305068424913,8.303050168943776e-07,4.700817864494954e-07
28,163.76297032022688,0.00047815707110054195,7.583557838001814e-05,0.15859972164684816,0.005649829135577288,0.0022565578393501286,0.3994028465640595,0.00325452498505574,0.0012872312784084627,2.1715593924272066e-07,1.8174028498989862e-07
29,165.38373540439378,0.0026870934792341834,0.0004476647583373031,0.16659813355837802,0.013393651898695269,0.0054820801459144666,0.40930436204994236,-0.0077148217703818895,-0.003128200639012461,1.2517295057224928e-06,1.0444275187135069e-06
30,170.55849507902315,0.00046570105754262643,7.359203599780757e-05,0.15802419772489257,0.005577783917748584,0.0022277535212365273,0.39939760200243424,-0.0032091130249722877,-0.0012614434885038772,3.2468131793157703e-07,2.837500909728785e-07
31,171.39449616237818,1.3474783831570695e-05,1.0800911172987759e-05,0.8015647084209102,0.0010026729611001873,0.0009750768183925581,0.972477424067216,0.00046496329037859496,0.0002461218840540032,5.351707240835232e-07,1.1535702845035158e-06
32,173.08945514738045,0.00016734051241633073,1.7865577139262067e-05,0.10676181685648148,0.0033422254501086286,0.0010961310419466978,0.32796442319924035,0.0019254738203422495,0.0006235972642369229,7.218399132553742e-08,5.232392584174418e-08
33,176.42946737867834,3.5995089992023975e-05,6.494471026541336e-06,0.1804265811803894,0.0015591382803092134,0.0006673773369180286,0.4280424291716268,0.0008806778589668754,0.0003669543995595455,1.5619755495319755e-07,6.213887364522002e-08
34,178.2325782149528,4.901317233806928e-06,1.6725850637985191e-06,0.3412521540662237,0.0006691706107226426,0.0003970997041349945,0.5934207177840094,0.00012157287652247994,-3.533881094382648e-05,6.051741200055959e-07,2.3091252052099443e-07
35,178.6542360012239,9.169091431353734e-06,2.460077250688353e-06,0.26830109276433994,0.0009190357140415179,0.00043648919913045223,0.47494258651925864,0.0001491982704382444,0.00018450888378374053,1.166769407967768e-06,1.3258835455826698e-07
36,180.21049405625232,2.1946046152320616e-05,3.316386633447569e-06,0.15111544970012233,0.0013032771014888985,0.0005304908022092198,0.4070437527085936,0.0005518634102367562,0.00016363271327997828,1.177307298886316e-06,3.0164024499371833e-07
37,182.36772993304876,4.8142134422491266e-05,8.879762606127553e-06,0.18444887649142255,0.001853691747264501,0.000819706065297315,0.4422019283988063,-0.0009452539120683815,-0.00036763742752003264,1.1334873285521698e-06,3.9966929871684655e-07
38,185.04703420694958,4.436687484526861e-05,3.9000565305542014e-05,0.8790469340371204,0.0020483583520241014,0.001826891205340132,0.891880663134395,0.0001518453143330619,0.0005413621233433622,6.189901409778261e-06,3.687468945564929e-06
39,187.0032243487482,7.609646143428749e-06,1.5586279100213992e-06,0.20482265280723208,0.0008088569587673887,0.0003807074220055014,0.47067335933619053,-0.00023412968171210302,-5.219438577415877e-05,7.346991842558956e-07,2.0514806917657465e-07
40,187.43093635143333,6.096211384921169e-05,1.8478732759075193e-05,0.30311830729462386,0.002238506102268354,0.001216767854381403,0.5435624469142215,0.0007863447253349717,0.00046612910616472547,4.733843233059393e-06,1.2430424709212181e-06
41,191.10708793250308,0.00018436933147233229,2.2354745004009543e-05,0.12124980236945887,0.0035839217806426958,0.0013603453558892215,0.3795689301135568,0.0019148954233083604,0.00046540149035008876,2.766032824714795e-06,1.8011157684436818e-06
42,205.04270264781735,4.00831698582013e-06,4.29706916017609e-06,1.072038258295802,0.0006174044356361085,0.0006372700301754073,1.032175982860945,-2.0799743262559883e-05,-4.935262453042988e-05,5.698355237756645e-07,5.982090700734598e-07
43,214.5032313443961,2.0033946349358045e-06,7.598285207420557e-07,0.37927051789594274,0.00040381128728330285,0.0002537345677665094,0.6283493695125373,-0.00014687543215208265,-7.879913352863237e-05,1.4751956704172257e-07,6.862998081760147e-08
44,216.83953923376257,5.933601233782094e-06,1.5065877229466866e-06,0.25390781476334284,0.0006451428461852533,0.00035261393147474406,0.5465672192751723,-0.0003403052734052281,-0.0001220362981553998,1.0317938199268239e-07,1.1948701570148187e-07
45,222.4110704843413,0.0003537151410675681,5.1978630669564514e-05,0.1469505391052382,0.0049610243839511,0.001993679091871319,0.40186843231830616,0.0026568099810349763,0.0008710865626600691,5.153767668264274e-06,2.547571383636066e-06
46,223.4548794854379,4.5930258825622666e-05,8.248752478781501e-06,0.17959298923392633,0.0017817512714882178,0.0008067398291831892,0.45277915166540345,-0.0009659600518692931,-0.0003237564680184472,5.631016920418474e-07,5.045616003587727e-07
47,224.67256345549973,6.03187902386983e-06,1.3622772187745377e-06,0.2258462434978597,0.000659208407893019,0.00036010735424210475,0.5462723926612075,0.00032987583646004737,-7.021130501068858e-06,1.6215228389430191e-07,1.9429412663806443e-07
48,228.65122049352195,1.3627562243280589e-05,2.3322577587073036e-05,1.7114269720964084,0.0010961356949015268,0.0014880145448085105,1.3575094322078334,-0.00027374912766164883,-7.384221851499302e-05,1.4650465604260676e-06,3.296743898784046e-06
49,233.1256702739856,2.29712952422088e-05,6.211613437468169e-06,0.27040762708297733,0.0012733271257913937,0.0007340066040790592,0.5764477872273883,0.0006637153877316523,0.00020268085508368117,4.497114323112589e-07,6.232906616689745e-07
50,234.10408104390407,3.77152280043375e-06,4.972102757774729e-06,1.318327641345004,0.0005323123854787417,0.0006282633855166675,1.180253179628032,0.00024286557861500727,0.00024759532413098917,1.5960811185909246e-07,3.162068219794141e-07
51,239.83662526608757,0.00011609456932278751,0.0001160157085109859,0.9993207192010649,0.003324616111221207,0.0032652585315412147,0.9821460350024627,-5.257115768560657e-05,-0.0005487777053873414,1.6567171660695613e-05,1.4637663552018157e-05
52,244.729340411885,9.37918646402947e-05,3.8262000842179056e-05,0.4079458382549418,0.002829486750821527,0.0018964829952010833,0.6702568918728633,0.0008489171434948132,0.00019191036792228408,8.766021485274572e-06,5.22923847470801e-06
53,249.41488961181102,2.9581952955359196e-05,3.778889852228677e-05,1.27743082342509,0.0015625326477584584,0.0018847599636876405,1.2062211732928816,-0.0005406522853679263,-0.00019042588812652936,2.3468903914355608e-06,5.165301096170255e-06
54,251.60129053272343,0.0001709213007511786,0.0001651297065514257,0.9661154333936172,0.004012461880418183,0.00396566360019036,0.9883367663986518,0.00037246646999814875,1.0834641769319475e-05,2.3525484791985563e-05,2.358920343223194e-05
55,263.75222535252396,9.227773669483634e-07,1.1284036994252201e-07,0.12228341741376532,0.000294758144347599,0.00010192048821870432,0.34577666528702494,-2.7905327416958652e-05,1.6707988321762457e-05,1.268193626467455e-07,1.432547294618789e-08
56,264.3581826173065,2.3266404146976525e-06,8.095218810235972e-07,0.3479359663443286,0.0004427513245916255,0.0002739752311216575,0.6188016069163887,0.0001409856028130226,-3.9783110791965136e-05,2.0459687223897724e-07,1.0547150933296248e-07
57,265.877108541604,2.86754408389799e-05,6.36751411256353e-05,2.2205461978139365,0.001647988943262626,0.00243882139291482,1.479877278840557,0.00010846794688286938,0.00030095137628379415,4.020857505919368e-06,8.514201890816478e-06
58,268.751879067541,1.759986915276123e-05,7.852060014869317e-06,0.4461430904239089,0.00123413570497639,0.0007685625553805545,0.622753682825551,-0.0003450619161441774,0.0003495851296494064,1.7488316405674455e-06,3.3608866937566634e-07
59,272.0505399122054,2.4666400042840793e-06,3.6062346151903306e-06,1.4620028090548254,0.0004777440657803567,0.0005860441347477701,1.226690558239617,-7.207320568876814e-05,-1.5746259185434042e-06,3.18983627180369e-07,5.151604342978686e-07
60,272.58500454637397,5.365469565882062e-06,1.6662484568294804e-06,0.3105503509748369,0.0006302184006014809,0.00039264594035803434,0.6230315395159722,0.0002975367546653729,5.928880650910943e-05,1.9738630698942267e-07,2.1543802012173178e-07
61,277.119363464264,1.5123703860227595e-07,6.288837772568659e-07,4.158265614488182,0.00011843562519419238,0.00021737638340441762,1.8353969343936634,-1.7113059326279156e-05,-9.915667012398248e-05,1.9722640374937455e-08,2.6634534557633315e-08
62,278.8112362470288,1.6612285021863347e-06,1.4752693419621826e-06,0.8880592525474899,0.0003543733311116784,0.0003748055267905271,1.057657261100186,0.00015931187564784585,4.198071678803335e-06,7.415945495382475e-08,2.1063946724289513e-07
63,282.69557394354234,3.4053811588272945e-07,2.2612133992093537e-05,66.40118370737812,0.00017071085462991916,0.0014659998090199577,8.58761917745694,5.058550447745169e-05,5.83741898855609e-05,3.21982741481438e-08,3.2083992028682485e-06
64,292.09593365956715,3.289430995249204e-05,7.027617619328459e-06,0.21364234815924613,0.001744105527435264,0.0008133701304430305,0.4663537370007105,0.0002658761893388946,7.751819084522715e-05,4.2447504699871875e-06,9.653156390417415e-07
65,298.4447671269425,3.1902975697421476e-06,3.245307502277762e-06,1.017242884506244,0.0005470421547576498,0.0005436556749543232,0.993809471950426,-5.9702236065994896e-05,0.0001025279823492949,4.328430721620796e-07,3.9603829712428314e-07
66,298.5328453369483,3.268757733253366e-06,9.809924143009896e-07,0.3001116920722713,0.00048607928802145347,0.00030141279762309727,0.6200897776368414,-0.00024158281360523817,-4.4779981726028595e-05,9.177946013275997e-08,1.2725090142124774e-07
67,303.6056382530948,0.0001843130312156245,8.615006759813533e-05,0.46741170187445896,0.0036568710116291906,0.002864321641801225,0.7832711716361926,-0.0018032814217387265,1.8285163751648643e-05,5.425850906594657e-06,1.230500313907589e-05
68,304.39914187887666,8.39818635034757e-06,2.7144349365275244e-06,0.3232168022105372,0.0008575847714312134,0.0005057617812245323,0.5897513552863961,-0.000223763123487671,-4.601743098057535e-05,8.778627508377756e-07,3.741632512278834e-07
69,313.58403355196805,5.609845307215103e-06,1.9473070715794743e-05,3.471231317332307,0.0007224903989003384,0.0013555451325005577,1.8762119670569406,-9.772423556708709e-05,-0.00011524317291973969,7.400134467774835e-07,2.696489459298191e-06
70,313.7863678231894,9.595065590594012e-07,2.8954954147600687e-06,3.0176921537654793,0.00027888957794630875,0.0005110104325428096,1.8323037967420508,0.00010285656818191195,0.00010667116726629604,6.906146374888395e-08,3.4049317258459055e-07
71,314.572245965001,3.3483107402953424e-06,7.027285531379266e-06,2.0987554849104044,0.0005513216061685259,0.0008180768488661291,1.4838468866682917,0.00010776443765051862,-3.478607070543186e-06,4.0367398704276846e-07,1.003820142793923e-06
72,323.5503605717909,0.00010999337672042687,4.867452035216081e-05,0.4425222845542614,0.0031615872299625737,0.0021530519574359435,0.6810034962917758,0.0006109629125842601,-5.282201168318086e-06,1.3313710156503139e-05,6.953323539706799e-06
73,325.1178096145153,1.4482156657877643e-06,1.5843898264781895e-06,1.094028923942314,0.00036100439857891125,0.0003861521630338558,1.069660548608101,-7.688944442215313e-05,-3.721623482166869e-05,1.6888232370401892e-07,2.1743752291923118e-07
74,326.2055394535923,3.0455214033518636e-05,9.242448421207695e-06,0.3034767186674692,0.0015831009840927249,0.0009367068723235135,0.5916911692530721,0.0005537764231466902,4.6778352303933346e-05,2.3793056180038918e-06,1.3062826828879291e-06
75,326.9992691742289,6.434949971263484e-06,2.0326028053117214e-06,0.3158692475293053,0.0007125257775334078,0.0004393849707974489,0.6166583506894215,-0.00028599062959822064,-2.015073457650729e-05,3.934815944934408e-07,2.877614943761347e-07
76,328.6980606250657,1.470699809186584e-06,5.825543891713308e-07,0.3961069319057915,0.0003385014977203069,0.00022814256305663026,0.6739780018496025,0.00014078497858061034,5.166816044566147e-05,8.268305006559327e-08,6.606034899979901e-08
77,343.7275696542102,6.413654035291394e-05,3.0324588434819215e-05,0.47281297475599593,0.002447525273677528,0.0016969138621866628,0.6933182183802195,0.00030277123956645724,8.149689844860752e-05,8.573053042146647e-06,4.289387133466542e-06
78,346.1971996566042,0.00033454883213202555,4.676503105742477e-05,0.13978536633769964,0.005643445567267202,0.002085909106445065,0.3696162356103226,0.00010176752359554915,0.00028275819452971973,4.772611197619727e-05,6.166740315943995e-06
79,347.3313744271834,2.0181285675282172e-05,1.062820689682911e-06,0.05266367598099276,0.0013819789363621088,0.0003157340628544766,0.22846517739670333,-9.725681144286587e-05,3.4530400984111864e-05,2.8222336776486684e-06,1.4416642900533585e-07
80,352.97186995576266,1.9143205087107495e-06,1.5289739841549047e-06,0.7987032355332354,0.0004258285085892624,0.00037332991548900556,0.8767142357983952,-2.7697254942893323e-05,-6.967337196073231e-05,2.685427573998609e-07,1.8721813427683852e-07
81,355.3266280996248,1.980613407615135e-06,1.5271330853648463e-06,0.7710404662986068,0.00041103265743653596,0.00038134546131268234,0.9277741182197005,0.00012372640967280488,-3.6239562495321564e-06,1.8453475819165875e-07,2.180774425306304e-07
82,356.0421309841476,1.0598153181247332e-05,2.3680776402577284e-05,2.234424809454416,0.0009587070316020436,0.0014699354402415556,1.5332477929000121,-0.0002649111480105641,0.00027125487789529207,1.0628781351335652e-06,2.909958858198249e-06
83,358.55643900689,9.254495483418718e-05,0.00025200740095856437,2.7230809222402894,0.0027973855701695235,0.004855853642550172,1.7358542541763038,-0.0008768044479038709,0.0005724927740739331,8.27851186290095e-06,3.389410600315076e-05
84,372.76239478381405,3.368135037179823e-05,3.056819390707699e-06,0.09075703191720032,0.0016352312904222837,0.0005193223745243295,0.3175834376250342,0.0006443225528470394,0.00012910352996035415,2.142790075281224e-06,3.2953884650537376e-07
85,373.34427154283213,0.00015719659079001185,2.2415436778284027e-05,0.14259492948054625,0.0032552402261146157,0.0012812707387926177,0.3936025146512504,-0.0018445597091428418,-0.0006193223515578902,5.840810519030327e-07,7.364612710028938e-07
86,376.4664541038435,0.00020679249845426183,0.0012310890409195085,5.953257734790605,0.0044373084174459555,0.010827248612916309,2.4400486949131883,-6.121337491597305e-05,0.0001158733016826119,2.9517697139596382e-05,0.00017578354898965446
87,377.35504558332417,8.332019500058692e-05,0.0002580275685824721,3.09681906746203,0.0027639661792160882,0.004956419621788339,1.793227304682169,0.0004796101875603753,7.867710682285534e-05,1.0424146865722929e-05,3.682128780875163e-05
88,378.6139808691934,5.780963600657983e-05,0.00028321116203748,4.899030362433786,0.002322679812411708,0.005192372143543574,2.2355092233535965,0.0002936109975282264,9.565099696814035e-05,7.704328886064488e-06,4.039992170607644e-05
89,380.1018943726283,0.00017877983060107498,0.000593491561953883,3.319678511600035,0.0041174103381753395,0.007518074673320111,1.8259231059908887,0.0002392298949308961,3.482296060471531e-05,2.5172062597540838e-05,8.47767133167922e-05
90,380.8327238552963,7.957824227837789e-05,0.00017494109220981234,2.1983533086574014,0.002514119011546006,0.004070027578725142,1.6188683033832842,0.0009891972440878583,0.0002731550974688357,5.0778912616260375e-06,2.451192505464542e-05
91,384.46448285116145,2.6597183579236532e-05,8.576764129392578e-05,3.224688848667477,0.0015246790515141997,0.002845596267863417,1.8663575557343552,-0.00040262089262554923,-0.00023487601730283933,2.757503190885686e-06,1.1897876833749117e-05
92,386.58613595660347,2.7657984973306438e-06,6.574760841582572e-06,2.3771655266745113,0.00046613595755832913,0.0007901745261727997,1.6951589195388828,-0.00018941035651180252,3.7332472760202386e-05,1.64480822200554e-07,9.302919618678522e-07
93,388.2165816282335,4.0450847357119225e-05,7.640428099475586e-05,1.8888178119044752,0.0016997900153907118,0.002685640712270845,1.5799838144440017,-0.0008655267436948518,-0.00022299105163677466,9.628146964033724e-07,1.0595236512114643e-05
94,389.6097773577103,2.3083364850072892e-05,1.005998941474798e-05,0.43581122076819806,0.001260634040174232,0.0009694290202849831,0.7690011449722541,0.0006883573536831111,0.00011930876480659158,2.5153596620574056e-07,1.3456333219375176e-06
95,391.13133405908525,2.3621272371284286e-06,1.2561579469112519e-05,5.317909751713153,0.0004705501017811569,0.001088253326584717,2.312725727750115,5.252481256527256e-05,-9.679255767003347e-05,3.19711245721809e-07,1.7342833577426738e-06
96,395.22824147894306,5.5255661123014575e-05,1.637713549988802e-05,0.2963883730108292,0.002011872386459467,0.001180300247741766,0.5866675519210648,0.0009720364601961684,0.00035998913710829267,1.8195987893190278e-06,1.5064982074670322e-06
97,399.9953038480786,3.6736031174272414e-05,4.215665166705e-05,1.1475559639815922,0.0017727617183319068,0.001939631353156126,1.0941297598535895,0.0005261916296088002,0.0004433766823012479,3.4680768251580004e-06,4.758631708381318e-06
98,402.26274645456306,1.7291340036840584e-05,3.4406357400820184e-05,1.9898028335290778,0.0011677619985917423,0.0017565469098208336,1.504199410444195,0.000469264605180338,0.0003857708409778689,1.054560414494707e-06,3.9584994317322045e-06
99,402.54634162005976,6.795961999336844e-05,4.4748944264026554e-05,0.658463721080153,0.0022610153035670707,0.0020506859497160493,0.9069757053306109,0.0010285416811173231,0.0002096132573233452,2.9077443503663175e-06,6.1102495671385605e-06
100,403.77919554165743,0.00015458449979449424,0.00016079503442309164,1.0401756620932483,0.0035448541347782715,0.0038573697626862365,1.0881603631703487,0.001295050292388818,0.0005813374629815016,1.1301787586108272e-05,2.0798162622733147e-05
101,410.2161721586271,0.0011929268232461947,0.00016028966753836658,0.13436672259760749,0.009221468126508876,0.003647077574149431,0.39549858266767823,-0.004714472139336993,-0.0012361029503989613,2.7535097625697433e-05,1.3075984979862973e-05
102,413.6842616656281,0.000124870139148633,1.3662122968348715e-05,0.10941064902703986,0.0029484197221388616,0.0010636545320951787,0.36075410977225986,0.001577427843996541,0.0003634029342162541,1.8425145732760135e-06,1.1027638287834967e-06
103,414.38119418406865,0.0007565572290269201,0.00011400242249347609,0.1506857883574854,0.007420232139190337,0.0031814906353829376,0.4287589088459553,-0.003635512664774687,-0.0007563388683832587,2.3113481988392636e-05,1.2608605817321286e-05
104,417.7624099546728,2.863241383381759e-05,1.8214853749093955e-05,0.6361620034836354,0.001644836838684058,0.0012853830910749227,0.7814654079022731,-0.00012903845592456462,0.000253370172097848,3.983303184854968e-06,2.189430537741966e-06
105,420.39442480513594,0.0007130001209741233,0.000836261875581999,1.1728776068641777,0.008236944596116362,0.008921432522583124,1.0830997366170814,0.0002115078213197711,0.00020116584358816544,0.00010156957440607838,0.0001192058327476864
106,424.3853557482325,0.0004411927280861302,0.0004105584538324255,0.9305648703989422,0.00610403970813958,0.006219609642223141,1.0189333522731596,-0.0019239248102927615,-0.0005696809220800958,3.923226109734693e-05,5.656490256403346e-05
107,426.7583325269312,0.0011698139003568494,0.00019769992543026965,0.16900117648624424,0.00892061904154832,0.003995842640309692,0.4479333353098944,-0.004975873178316344,-0.0014919279638562581,7.949253636555677e-06,1.3933816887162435e-05
108,429.8467538122302,0.0014394464607660618,0.00023463863967139307,0.16300615970566926,0.009832356255359725,0.004118680721124331,0.41889050947266,0.0056065870695683655,0.0020461629022527905,3.5606607395368923e-06,6.604774522341819e-06
109,433.2572253613565,0.0006606650622738468,8.599930456229451e-05,0.13017080737750233,0.006661380828543541,0.0026301292803565606,0.39483244511207716,0.003798031844829038,0.0009949767997559829,1.648285289821529e-06,5.921465302846418e-06
110,434.027544271707,0.0016377038778072482,0.00011938583491727518,0.07289830386011119,0.010452176559379057,0.0028614670257445267,0.27376757458013323,-0.006028327770763268,-0.0015731992116404154,3.3868153974923027e-07,1.1446893913577261e-06
111,434.79358195065913,0.0004557861243259628,4.162116077720608e-05,0.09131730554271994,0.005520046343581919,0.0017718267111332473,0.3209804050274552,0.0031721187236129675,0.0008008225811377093,4.2585006780634725e-07,1.8231292123576068e-06
112,436.8846581719455,0.00039434744596154647,0.00011969554533070302,0.303528136308444,0.005181285442766173,0.003281701229703602,0.6333758805520615,0.002886333033678875,0.0007000071025990243,2.7794455432544434e-06,1.394929969495634e-05
113,438.34013337020974,0.03103842910929143,0.002266744066351021,0.07303024448722714,0.04549812316814337,0.012327761746016078,0.27095099506538906,0.026250357860198026,0.0070501910394519625,4.2530226872453e-06,4.287192882346756e-06
114,439.54653407469306,0.004652041281874841,0.0003872528719887288,0.08324364478396465,0.01761653471601689,0.005119091312184233,0.2905844648056677,-0.010159641216208973,-0.0028816066176210833,1.0310497115278044e-06,1.9411886494908488e-06
115,440.1233602638659,0.006636162536405318,0.0004347175962345309,0.06550737626598416,0.021041030741709512,0.005417718334948737,0.2574835045608876,-0.01213367002686964,-0.003061409027903158,1.5706945660510249e-06,1.8524943726882615e-06
116,445.6818932964832,0.0006093736791500585,2.4372863129126917e-05,0.039996580034637644,0.006505425709695549,0.0014315724141168928,0.2200582218598404,0.0034961117097394765,0.00045980411063295534,8.478258605153089e-06,2.1227101745933685e-06
117,445.7396614419252,0.00014917203944518444,2.471048897009564e-05,0.16565094277722126,0.0033867373672985725,0.0015301797073937102,0.45181528457704306,-0.001458998756049823,-9.632684808654386e-05,7.625936826887508e-06,3.470420027898954e-06
118,448.16623716688315,7.114203023532053e-05,5.123477225468977e-06,0.07201758522383689,0.0021930894461243407,0.0006577702267981464,0.2999285906740226,0.001236506320510718,0.00020736971406735508,3.341965150696534e-07,4.554826144874328e-07
119,448.2303859068962,0.00024839967024818405,4.218899841595396e-05,0.16984321425951002,0.004075187006872653,0.001780755783504365,0.43697523095288293,-0.0023416455794678104,-0.0008116075146535895,2.3585562219040903e-07,1.7924563304365739e-06
120,460.4309964669413,5.264038642341751e-06,1.3997883095696771e-05,2.659152800115027,0.0007075125381459306,0.0011546060313203268,1.6319230671812905,2.436106515328144e-05,-3.5970801263533283e-06,7.481904107212345e-07,1.999614405907454e-06
121,473.53261008289195,0.0020495490969088086,9.077609403557326e-05,0.04429076335496646,0.011777603502320896,0.0027735917707705335,0.23549712555902982,-0.0066280754270560864,-0.0008607307520365944,1.0376688986470863e-05,8.20535854257237e-06
122,503.27345961624235,0.00015480860007617702,1.681133917940922e-05,0.10859434922308468,0.0033411917537526153,0.0012636051131239758,0.37818994127013944,-0.001668692003959545,5.8380247371185114e-05,4.214944984663362e-06,2.3797096830955406e-06
123,505.0308524028613,3.7324762711255373e-06,3.037520051388059e-06,0.8138082684909038,0.0005455039732246667,0.000536008094954657,0.9825924672667805,-0.00021220938832944292,3.927201801904682e-05,2.4371416697764334e-07,4.240167054885834e-07
124,507.2988932554008,4.180105546593118e-06,3.936256698109054e-06,0.9416644279035474,0.0005638015232273963,0.0005973571399848198,1.0595167188718106,-0.0002498070206084317,0.00011847281133792187,1.9599227243662206e-07,4.720921974178667e-07
125,520.6400538238566,2.23802203370493e-06,2.180022984564789e-06,0.9740846835881565,0.0003890248191622438,0.0004515253067141362,1.1606593833434222,-0.000219249355672968,-5.3978327084388177e-05,1.0694205052772428e-08,2.927011848282108e-07
126,522.694845436367,3.378696947091679e-06,8.820594919665316e-07,0.2610649921490569,0.0004779896143980247,0.0002897929353765513,0.6062745437293938,-0.0002693915224039056,-4.4726769502882275e-06,1.613804166463562e-08,1.258798963152797e-07
127,547.1218518849371,4.555811346236959e-05,4.254774199635884e-05,0.9339223853398303,0.0018688775870207132,0.001970229068895176,1.0542312041079336,-0.0008112508582225342,-0.00036401209434563003,2.2774793555519525e-06,5.226432254144816e-06
128,549.4106052820749,2.66254928283007e-05,4.132120629231989e-05,1.551941462972616,0.001538461022788735,0.0018025241074519345,1.1716410625629878,0.000362444221259454,-0.0007305871881901904,2.9591473171005654e-06,2.471730358953671e-06
129,583.1038412176672,8.606385356294708e-05,7.798841464410768e-06,0.09061692152451316,0.0024001411577486416,0.000808359049754866,0.33679646180190315,0.0013764349819356259,0.00026354783873065263,1.1543669794591137e-07,6.676079451326934e-07
130,584.8892977885148,1.3487304833053954e-05,2.8558623988577113e-06,0.2117444837354546,0.0009506961071262429,0.00048815904719430836,0.51347538244362,0.0005441379460143411,0.00016186876659866437,2.33471628403123e-08,2.395421438357045e-07
131,588.6092269942095,0.0004886449441582029,5.004874436045857e-05,0.10242353872437668,0.00575636160138167,0.0019076856152276701,0.3314047565687635,0.0032285773252220076,0.000936362864599749,2.7968463765723873e-06,1.513407245913345e-06
132,589.6041799565205,3.092799245235056e-05,2.0640662101259946e-05,0.6673780114587178,0.0014493696457327082,0.0013911479785369337,0.9598296629385105,0.0008106208214216556,0.00015398142511650428,1.940310324065958e-07,2.796242790517002e-06
133,591.0090598419496,1.600782803164777e-05,7.98483514090091e-06,0.4988081534306056,0.0010403453633434341,0.0008479272580114466,0.8150440112371921,0.0005864825496334122,0.00017961656169481385,7.564969793498847e-08,9.332914607604144e-07
134,621.5870866301035,1.7975848462342583e-05,0.0001383711501407062,7.697614409165635,0.0012369700161239275,0.003630019228142071,2.934605674207703,0.00037612575163215034,-3.0103987128660137e-05,1.658524616500619e-06,1.976148126983704e-05
135,667.6652928978784,5.7966978455695956e-05,0.0015027600823947767,25.924416321670677,0.002338619323755777,0.011961379025610753,5.1147182887384215,0.00020018600064545625,-0.00018795317667648823,8.02337555532099e-06,0.00021445291350667876
136,668.2383420852527,1.154210207388965e-05,0.00041509014984023203,35.96313281436334,0.0010483968594020981,0.006287373553330555,5.997131236081965,9.32673753339941e-06,-3.215097425735003e-05,1.6483125160576982e-06,5.9291947715525095e-05
137,669.5540129526847,0.00014015430800436656,0.0038586081237245123,27.53114177271166,0.003638862218173564,0.01916830666645378,5.267664868079241,0.0002880928932532297,-0.00022049252993798044,1.9488488546132972e-05,0.0005509171943879117
138,672.4279570804592,0.0001548518246395239,0.005190123385228878,33.516707971061045,0.0038387280745283007,0.022232801557909538,5.791710464055593,-9.644638607383034e-05,-3.375661109898213e-07,2.206189127101747e-05,0.0007414461971572983
139,682.4628426886259,5.192492007189745e-06,3.189412986377825e-05,6.142355119587336,0.0006452392085369926,0.0017425810128506634,2.700674400741657,0.00024660492121168315,-2.714802649942764e-05,3.5083751210397495e-07,4.5515663104788054e-06
140,686.6547615442936,2.5656489639724196e-06,3.3371338164778795e-06,1.300697742886448,0.0004885878567470538,0.000563091712061983,1.1524881437106622,6.616980372372201e-05,2.41521664582726e-05,3.383741474792578e-07,4.729834421385164e-07
141,717.2564003807865,4.670585280131063e-06,2.2912206666018222e-05,4.905639291822389,0.000640632562463462,0.0014771720034708747,2.3058022492497394,0.0001635892415193426,-7.778525603259942e-06,4.951886403988203e-07,3.272783417184714e-06
142,717.7501472237064,7.31776801199908e-07,1.0110146105917e-05,13.815887698734377,0.00024267674414079604,0.0009385071257902467,3.867313817453164,9.16558695292687e-05,-0.0002526587570950145,5.0534410333917606e-08,1.0339294238230158e-06
143,752.5624388542394,3.7957646972849754e-05,0.00033755749941825436,8.893003817114945,0.0019009209308325507,0.005621306171998874,2.9571488644385107,3.431113353287903e-05,0.000653601253741698,5.414952935436537e-06,4.5476248924011716e-05
144,757.3877476425508,0.00012913650195445098,0.0003306292913788309,2.5603085601269457,0.003503030031946856,0.005611335092103476,1.601851837103692,-0.00014623628897407018,3.326154734121604e-05,1.8310596372124304e-05,4.722564378641599e-05
145,758.129599054273,0.0001684559848262988,0.00037869058132903986,2.248009067291505,0.0037846629747119785,0.005979087391219403,1.579820298708216,-0.0011565404858700685,-0.0004959822274841486,1.5466374218678994e-05,5.251723638284767e-05
146,758.469170059381,2.2662272828908778e-05,1.0985748591933283e-05,0.48475934761139594,0.0012374599156048883,0.0010047159340986884,0.8119179631023189,0.0006983339369000715,0.00016919864623821113,1.0244427067469834e-07,1.385354343847905e-06
147,762.3912743462761,0.00013042280369911875,0.0006150136689787374,4.715537862516392,0.0035213775863334362,0.007635645627847771,2.168368895594134,0.00012816441727199943,0.00045795724861075193,1.8526232627951223e-05,8.651086444410809e-05
148,763.2638272052005,0.000440386779712342,0.0019760690236969615,4.487121582050483,0.006464910250981604,0.013713435637472305,2.121210520345602,0.00033759518857904663,0.00032848647014915855,6.217972952878779e-05,0.00028160191034982344
149,766.918532134617,0.0009288649224759933,0.003173163426606313,3.416173169881247,0.009226062276339599,0.017360706860550964,1.881702761217297,-0.0016125103190844925,-0.0007946547481167224,0.00011597948480915207,0.0004492495712878018
150,768.1077035949223,0.00040485045733501676,0.001807484376420999,4.464572890244489,0.0061967414137586345,0.013112165054730793,2.1159774435024565,-0.00035009139236485964,-0.00040654059837478645,5.7047868299951184e-05,0.0002571495699721839
151,769.6206216971715,0.0012701034058811012,0.004511660025804856,3.552198982314365,0.010994944155528463,0.020728770036264853,1.8853001655167152,0.00023898513166383437,-4.9565544631609747e-08,0.00018107618295558055,0.0006445228608134718
152,772.8544658157502,0.0006370819009784816,0.0026706728626667547,4.192040079250283,0.007756735925529071,0.01594521597088213,2.055660541233978,0.0006282782283735985,0.00027872499482217705,8.84741274324728e-05,0.0003810252742347881
153,775.498945336254,0.00036508660329613433,0.0010890437342538303,2.9829736956150903,0.005890662487155246,0.0101733052852354,1.7270222674306286,-0.00023374656290838422,-0.0004158222353937517,5.180398825584537e-05,0.0001544661240483824
154,777.6375847611239,2.3764486107041764e-05,4.440524039952387e-05,1.8685546238833226,0.0014329176321827438,0.001960885160912489,1.3684562998401377,0.00040417545058309595,0.0005465039696587551,2.344769334087082e-06,4.423606271592697e-06
155,778.3128992366738,2.1088299560004534e-05,0.00012947587289474346,6.139701900873208,0.0014002560572979952,0.0034946504894286415,2.4957224581996065,0.00019259837063412277,-0.00030353002664000134,2.7741519433304546e-06,1.7904285918071408e-05
156,780.6811151556951,0.00011941577438575068,0.0004559806766848741,3.8184291734516784,0.003367003718409642,0.006558696765053513,1.9479327359197047,0.00016783522960750474,0.0005648593727107057,1.6878312070338216e-05,6.308895738465902e-05
157,781.5911469664069,0.00011545364873835037,0.00041750587531841625,3.61622070745117,0.0033139418259580944,0.006298587488993051,1.900633088866026,0.00010199465021861383,0.0002649569601901695,1.6426502549722226e-05,5.919239667636023e-05
158,783.307147272648,2.9862425616617345e-05,8.085327605823002e-05,2.7075254065509715,0.0016324226094079932,0.0027244987496610833,1.6689910651563062,-0.00037337183052506734,-0.0004645104927036847,3.369876006326223e-06,1.016337516511402e-05
159,784.3462765902993,0.00022354402116014764,0.0005405399911804952,2.4180471854053778,0.004412682307547515,0.007118683597941158,1.6132327463876701,0.001189163637403216,0.0007909488638587389,2.2844152016665074e-05,7.319828377781727e-05
160,785.5490318517985,8.089666573794816e-06,5.85315148783944e-06,0.7235343304259029,0.000791378371515354,0.0007465597024882383,0.9433663205360343,0.0003348553520021724,-8.441078378125985e-06,4.3484310991319585e-07,8.35706450950155e-07
161,785.9019047724449,0.0002666575995812912,0.0006548510798238498,2.4557750495470763,0.004860148004725089,0.007868194698719511,1.618920800574379,0.0011749450417105252,0.0005970270634595801,2.9219326612069227e-05,9.125874581017245e-05
162,789.3226638564026,2.0253684255800252e-05,7.61127456567331e-05,3.757970386792019,0.0013631902186659552,0.002680586059896961,1.9664064656510194,0.0002343888423272933,-0.00022187059948053367,2.5402097760659226e-06,1.0556792903658542e-05
163,790.649280727267,2.2153503881277017e-06,7.528115410204462e-06,3.398160151346005,0.00045710477725002525,0.0008466365329131861,1.852171701216101,3.98424913576149e-05,1.1497220727685331e-05,3.0627375754807555e-07,1.0745952909148158e-06
164,791.892050767506,4.3389300353552496e-05,0.00018221133032206201,4.199453064173308,0.0019708364499251203,0.0040918182204208176,2.0761835516976976,0.0004392956545840043,0.000689072304860631,4.957881443916428e-06,2.2977771637484944e-05
165,808.5797318377938,1.6700422938136074e-06,5.124608709522454e-06,3.0685502567843406,0.00035453243906854293,0.0006985001755004786,1.9702010268387184,0.00016107581953361816,-1.0996666812701505e-05,7.178548715491495e-08,7.313095726968463e-07
166,808.694285310158,7.802180126598632e-06,9.136685552360916e-06,1.1710426322013234,0.0007554113773972201,0.0009266421195671454,1.226672177959383,0.00036620106408369324,-9.455414514839926e-05,2.525050366396166e-07,1.2477662379924873e-06
167,817.7801556660602,2.4156159730500162e-05,0.00012956038536330488,5.363451260827636,0.0015145501656958862,0.0035116214664648944,2.3185903946941364,7.23195502490744e-05,-7.687867501160461e-05,3.4172577785471263e-06,1.8470631497583654e-05
168,1035.3613907501706,0.0003321740537661741,0.00010045527963463134,0.30241759853207684,0.00562435990542857,0.0030208461945749722,0.5371004426049061,4.136390925816672e-05,0.0005860986174262747,4.744243714023769e-05,1.214246544484668e-05
169,1037.6171761443118,4.936919487157739e-05,2.3537558858588575e-05,0.47676610728240804,0.0021025079005779035,0.0014257004334365024,0.6780951610429758,-0.00046773927650918995,0.0004032305412290012,5.646299069436725e-06,2.317255676642297e-06
170,1038.5603784265602,0.0003399419600779995,5.0259888787212794e-05,0.1478484408799687,0.005650566867172896,0.0021122029941387254,0.37380373399518896,-0.0005893152280955771,0.0005029669865097564,4.633054290929415e-05,5.553711179838721e-06
171,1039.7531555276958,0.00014198985279227058,4.164133907242153e-05,0.2932698235369136,0.003673324746454175,0.001985217342222566,0.5404415561512435,0.00015154720977868705,0.0001387553578221142,2.0136622533806265e-05,5.8249931218323e-06
172,1043.0246027766227,0.00037761529892163753,4.071239464719171e-05,0.10781447352227198,0.005996866921603235,0.001950113335547432,0.32518869620439705,-2.7167150285315838e-05,-0.0002406016258145923,5.394029806988278e-05,5.443911891669083e-06
173,1044.2410326946547,0.00017502851132035363,7.153681926871007e-05,0.4087152357582283,0.004074722722788184,0.0026057967954709518,0.6395028503161315,-0.00022659737674383487,0.00013332261240228682,2.4673989231247172e-05,1.0105278273530057e-05
174,1045.944431913494,0.00028964274244993443,4.943067455187829e-05,0.17066084284995514,0.005239162011958203,0.0021632350061845927,0.4128971391316178,-0.0003254793935221952,-0.00014782992882526416,4.069651212108479e-05,6.92103694261951e-06
175,1046.8959286683842,0.00032683352551500186,4.619121206751611e-05,0.14132947957138473,0.005578606442851751,0.00209374857564247,0.37531749140062265,6.917618441478386e-05,0.00010937178811028699,4.6659740716134765e-05,6.52184480085232e-06
176,1049.4027298528847,0.00018538928458933728,3.420315176854266e-05,0.18449368227676877,0.004195458948904485,0.0017048005996094244,0.40634424514023204,0.00020540633152969315,-0.0005225669109765185,2.6212950763267912e-05,3.1306748326290466e-06
177,1049.6252672788803,0.00022937501530562667,4.8797682050748644e-05,0.21274192390016428,0.004673331447587381,0.0021557752775229855,0.4612930415273476,6.367376692832198e-05,-4.929543333531683e-06,3.274179565983697e-05,6.97094121898031e-06
178,1050.877111779853,0.0003207489292373603,0.00018801004677757293,0.5861595461116628,0.00549501031826387,0.003924398711384024,0.7141749485602285,-0.000523519150322412,0.0013957751515699297,4.405938224334525e-05,1.4334510637038601e-05
179,1051.6824665419624,4.7983013655590565e-05,5.338270077609816e-05,1.1125333052080706,0.0021374328641577947,0.0021013846343221998,0.9831348013591066,-3.044307788709529e-05,0.000720936544788738,6.848758358712111e-06,4.28485331479451e-06
180,1054.901707575772,0.00010980999276893946,2.6677016615368148e-05,0.24293796896518813,0.003217334810744884,0.0015868050503567844,0.4932048243960671,0.00028828204841476374,0.0001329268256156091,1.5152885499174274e-05,3.697412467399605e-06
181,1056.4195526819826,6.979798668242077e-05,3.268773852975569e-05,0.4683192178376741,0.002575517443229245,0.0016567764493428914,0.6432790636686917,0.00010485991659092697,-0.000535149850750353,9.900454941083607e-06,2.8286281722342944e-06
182,1058.0305547656671,0.00011492589317083173,3.9289178828354945e-05,0.3418653337760316,0.003297646906132311,0.0019303155637216058,0.5853615073621093,0.000234742480939761,-0.00011053338196065354,1.6063744530676113e-05,5.534197934944322e-06
183,1059.9519146407652,0.00014855226157824516,2.2605002651587528e-05,0.15216868737929692,0.0037613407623837466,0.0014535435921750283,0.3864429425569637,-1.0805023403041384e-05,-0.00017653421048794785,2.122100112776598e-05,3.028943987902913e-06
184,1063.373940177264,0.00021117381702546523,7.6379091285153e-05,0.3616882640140114,0.004430385468001037,0.0026830575932477,0.6056036461446501,-0.0006132189130699425,-0.0002421679512039828,2.7750304633552078e-05,1.0534293148369706e-05
185,1064.0033649407117,0.0009268925991976277,0.00025071610388971443,0.27049099766979356,0.009266019397504831,0.004877642100317123,0.5264010241151214,0.0013709117461072988,-0.000259127177764847,0.00012033137764213634,3.538492766402537e-05
186,1065.0388291519891,6.227225867415778e-05,3.8259507981826214e-05,0.6143908828170294,0.0024350270602656325,0.0018322001956038957,0.7524352503105343,-3.221736337229627e-05,-0.00047230354612663267,8.88936436307685e-06,4.031618456579366e-06
187,1068.2765527770357,0.00010192124889248112,1.4359185553358226e-05,0.1408851020703841,0.0030996955725024217,0.0011463639554726377,0.3698311426586851,0.0002770300357394599,0.00020378042105750893,1.4066813580128547e-05,1.7843564075816175e-06
188,1072.2590526985077,0.0003864133809029135,0.0001232833167542084,0.3190451543529322,0.005940816957705002,0.0034028695844003872,0.572794888081344,-0.001082988546530957,0.00035468733916540113,4.766207032380542e-05,1.680316812411685e-05
189,1074.486508271161,0.00021588256089570304,3.6877566144884736e-05,0.17082234892841106,0.004455702047858569,0.0018701561805504138,0.41972200126110754,-0.0007415256112131008,-0.00010679945850540958,2.7305550064554246e-05,5.194898649959649e-06
190,1077.122407398588,9.96174210040002e-05,2.000211761304991e-05,0.20078935402520323,0.003051081864853782,0.001372652000896088,0.4498902558820295,-0.00037236633401790026,0.00012716151864563172,1.333969572886476e-05,2.753495040136866e-06
191,1081.6195486296785,0.00012379602727698044,2.178670620116534e-05,0.1759887346984076,0.0033543851935950823,0.0014241265778390218,0.4245566611008993,0.0006469917277721985,0.0001907631553129304,1.4994157709389428e-05,2.8784471481489725e-06
192,1089.4512804979083,0.00017103417477439732,0.00014600255780863655,0.853645524359218,0.003984863495901702,0.0032856679117222666,0.8245371303437284,0.0005645867334354756,-0.0015551256882480786,2.2384293813383855e-05,5.310548861061264e-06
193,1102.5378292137373,0.00013329643443962404,0.00024316349067273122,1.8242310208445291,0.003561791177415434,0.004812210369474464,1.351064711482154,-8.150997608683912e-05,2.8700176689285446e-05,1.8999637144364082e-05,3.473234630947734e-05
194,1133.772347956893,0.0016740755704675115,0.003653918144703873,2.1826482681922537,0.012625641599664752,0.018652592968816294,1.4773580274377165,0.00015003691744897019,0.0002382479054907627,0.00023900893886008858,0.0005216234074003843
195,1140.0589691263797,0.00012909946476161478,0.0002689753542957116,2.0834738144916476,0.0035058604620839956,0.00505908177503345,1.4430356911655775,-5.6673317109604916e-05,-0.00013196970126953347,1.8422132977480787e-05,3.831309060047414e-05
196,1142.6770216728523,0.00023738382129809044,0.000508513361502321,2.1421567768250074,0.004754706423919701,0.0069585580327499045,1.4635095024465012,-2.4149124094504277e-05,8.041448333921213e-05,3.39082254556195e-05,7.260319564163413e-05
197,1143.8296617585238,0.0008335436960041092,0.0015876918177257326,1.904749355476987,0.008908819416899959,0.01229661910548687,1.3802748186993532,0.00011848746559905976,-3.8473423990733245e-05,0.00011898741834663218,0.000226803601218546
198,1145.5053422134617,0.00066217898565931,0.0012912920869167003,1.9500650351067892,0.007941273471092464,0.011089060049792505,1.3963830977687015,2.557496055821673e-05,-0.00010034482905966573,9.459279316028142e-05,0.00018440556830062065
199,1146.8178067946374,0.003516207830885189,0.0065094464383297305,1.8512689668548423,0.01829607774742222,0.024894991979425178,1.3606737095841592,0.0003185605376672858,-0.0003810189987940582,0.0005016630277368629,0.000928987648834977
200,1150.9736671430335,7.767731576177332e-05,0.00019101036254683996,2.459023727501669,0.002718110084663769,0.004264993757298794,1.5691026575277118,-8.693557516240939e-05,-3.169200619416538e-05,1.1048173574496637e-05,2.728073790004178e-05
201,1153.5023492107441,0.00042512853169382144,0.000986220496414684,2.3198172385309634,0.0063625550343584655,0.009689902132951482,1.5229576924089445,7.013888803456918e-05,0.0001566693332677449,6.070102226159411e-05,0.00014073085125932696
202,1155.2145550156913,0.0007800390512933622,0.001851121090337351,2.3731133553737545,0.008616553960008972,0.013276007759938858,1.5407560634512678,0.00018589697724835652,0.000186801319847311,0.0001112119936309441,0.00026422154676399994
203,1157.9782642481127,0.0001081324205024523,0.00023464266179068017,2.169956620783854,0.0032050511129263046,0.0047202308167778465,1.4727474384856656,-0.00014213134757727156,-0.00022715350858737438,1.5317623014866628e-05,3.318867422140289e-05
204,1160.3183504550284,3.3338933991928616e-05,0.00023470351241087798,7.039922526248136,0.0017730649485137985,0.004685073996853119,2.642358928126235,0.00015621950834265874,-0.0005597201465408949,4.6058185609316604e-06,3.151508764298696e-05
205,1163.1753874205567,4.3271496185719465e-05,0.0003181537562338277,7.352501861001639,0.002029530999291674,0.0054562265295815095,2.6884174380612,-4.040294847869793e-05,-0.0006420149324259938,6.171148323522816e-06,4.2800787632602826e-05
206,1167.3131937548856,6.783977894642885e-06,2.2506762039543508e-05,3.3176349317583216,0.000794275248159778,0.0014634369796087128,1.842480906964288,0.00010880141996979138,3.796705202970448e-05,8.93039884315422e-07,3.2059849532501892e-06
207,1169.1228168670116,6.12571204545559e-05,0.00029082400134252735,4.747595041759717,0.0024123409478425347,0.0052574311951720815,2.179389774846727,-0.00010664497830159547,-0.0002104461287374034,8.677904091670464e-06,4.126158007900031e-05
208,1172.1159341520447,4.110041617878442e-05,0.00014576340652946494,3.546518991326088,0.001975124094090493,0.003719486404980486,1.883165931755411,-0.00010136356080159281,-0.00019251278027820895,5.8054372090224855e-06,2.0585093407684982e-05
209,1173.1856633156706,8.255696599886326e-05,0.00026777880980485835,3.2435640840840185,0.0028033194775453516,0.005049701839111921,1.8013294166291567,-5.555445804642881e-05,5.0316651827309045e-05,1.177401179963797e-05,3.8237840051365485e-05
210,1176.1890062747595,5.7991875536016614e-06,1.9595065297172425e-05,3.3789328446538436,0.0007431500704899863,0.0013569430419218113,1.8259340822333887,4.9536165188287145e-06,0.00013917053153974143,8.282976184791369e-07,2.674783662709284e-06
211,1186.9321930148776,0.00012174716170922636,0.0003262318874877529,2.679585157532507,0.0033925241662577177,0.005557304674006325,1.638103194453164,-0.0002582490060902091,-0.0003804205733581867,1.6963713856804316e-05,4.567421370274503e-05
212,1187.3541506971292,6.922123029267159e-05,0.0002744704120452118,3.965118951002953,0.0025258647356022124,0.005092193854160369,2.0160200118342035,0.00040654892064099596,0.0004037610622313152,8.826219881903634e-06,3.816205389333923e-05
213,1189.996599788991,4.715791092817427e-05,0.0001280092234650055,2.7144803691574686,0.0021123276409358276,0.0034763350874093524,1.6457366840445389,0.00015096388339926511,0.0002877388535016401,6.590336670582837e-06,1.775478704476511e-05
214,1192.1060270848895,6.521562725199087e-05,0.0003099357070850427,4.752476057425042,0.002487763906221183,0.005407708317779141,2.173722475937534,-0.00013093682233233928,-0.0004619571856205133,9.206303848154112e-06,4.290464388920765e-05
215,1194.2044516484193,3.6183972513960396e-05,0.00010589074783565005,2.9264544625329787,0.0018391314340668028,0.0031666982920371,1.7218444714604753,0.0002225651765293731,0.00021028694176676113,4.850697987542943e-06,1.4842974418736754e-05
